time (s)	det(V)
5219.285975	-0.692906	
5219.287975	-0.706638	
5219.289976	-0.724665	
5219.293982	-0.735101	
5219.295984	-0.764851	
5219.297983	-0.775169	
5219.299984	-0.787354	
5219.301982	-0.798630	
5219.303983	-0.811150	
5219.305983	-0.825550	
5219.307982	-0.836260	
5219.311981	-0.848652	
5219.313984	-0.877280	
5219.315984	-0.888109	
5219.319983	-0.902025	
5219.321983	-0.919055	
5219.323983	-0.928629	
5219.325984	-0.937325	
5219.327984	-0.950651	
5219.329982	-0.959167	
5219.331984	-0.969514	
5219.333984	-0.980957	
5219.337983	-0.986586	
5219.339982	-0.999621	
5219.341984	-1.000614	
5219.343984	-1.009242	
5219.345982	-1.017270	
5219.347982	-1.019140	
5219.349984	-1.022995	
5219.353981	-1.026147	
5219.355983	-1.035013	
5219.357983	-1.032773	
5219.361982	-1.031899	
5219.363983	-1.033629	
5219.365984	-1.033904	
5219.367983	-1.035608	
5219.369983	-1.031143	
5219.373981	-1.032526	
5219.375984	-1.031223	
5219.377983	-1.034446	
5219.381984	-1.032565	
5219.383984	-1.027387	
5219.385984	-1.023615	
5219.387984	-1.024984	
5219.389984	-1.023686	
5219.391983	-1.017984	
5219.393982	-1.021659	
5219.395985	-1.022187	
5219.399986	-1.017745	
5219.401988	-1.011451	
5219.403988	-1.006261	
5219.405987	-1.003693	
5219.407986	-0.998700	
5219.409987	-0.994325	
5219.411987	-0.994811	
5219.413988	-0.989081	
5219.417986	-0.987584	
5219.421987	-0.975644	
5219.423986	-0.963870	
5219.425988	-0.956647	
5219.427987	-0.955776	
5219.429988	-0.949477	
5219.431987	-0.942799	
5219.435986	-0.943378	
5219.439986	-0.925577	
5219.441988	-0.907656	
5219.443988	-0.902713	
5219.445988	-0.896164	
5219.447988	-0.884879	
5219.449988	-0.876268	
5219.451987	-0.865418	
5219.455986	-0.857077	
5219.459986	-0.831391	
5219.461994	-0.805497	
5219.463989	-0.789185	
5219.465994	-0.774029	
5219.467994	-0.760635	
5219.469994	-0.739095	
5219.471994	-0.722930	
5219.473994	-0.709030	
5219.477995	-0.689994	
5219.479994	-0.658140	
5219.481994	-0.639007	
5219.483996	-0.622133	
5219.485996	-0.601439	
5219.487996	-0.585477	
5219.489997	-0.569532	
5219.491998	-0.547459	
5219.495996	-0.531678	
5219.497996	-0.499916	
5219.499997	-0.484746	
5219.503996	-0.466234	
5219.505998	-0.429137	
5219.507998	-0.411253	
5219.509996	-0.395993	
5219.511998	-0.383653	
5219.513997	-0.361847	
5219.515998	-0.346212	
5219.518006	-0.329411	
5219.522002	-0.306184	
5219.524001	-0.268164	
5219.526001	-0.243647	
5219.528001	-0.226484	
5219.530002	-0.206818	
5219.532002	-0.187836	
5219.534002	-0.171506	
5219.537999	-0.148469	
5219.540002	-0.115120	
5219.542003	-0.094076	
5219.546001	-0.077949	
5219.548002	-0.038585	
5219.550002	-0.022140	
5219.552002	-0.004104	
5219.554002	0.015175	
5219.557999	0.030418	
5219.560001	0.064720	
5219.562002	0.077381	
5219.566003	0.097452	
5219.568004	0.132577	
5219.570003	0.155729	
5219.572004	0.173176	
5219.574003	0.190829	
5219.578001	0.210212	
5219.580002	0.252040	
5219.582004	0.269288	
5219.586003	0.278682	
5219.588005	0.338453	
5219.590002	0.360237	
5219.592004	0.375493	
5219.594004	0.389920	
5219.598002	0.410343	
5219.600004	0.453661	
5219.602002	0.467359	
5219.606004	0.480681	
5219.608004	0.533863	
5219.610004	0.555510	
5219.612003	0.557433	
5219.614004	0.572088	
5219.616004	0.597312	
5219.620001	0.617595	
5219.624001	0.639586	
5219.626004	0.681143	
5219.628003	0.697748	
5219.630003	0.713084	
5219.632004	0.723545	
5219.634004	0.732347	
5219.636003	0.756235	
5219.638003	0.770623	
5219.642003	0.780350	
5219.646003	0.805486	
5219.648004	0.838083	
5219.650003	0.841715	
5219.652003	0.852607	
5219.654004	0.870684	
5219.656004	0.882087	
5219.658004	0.885694	
5219.662004	0.893262	
5219.666006	0.915347	
5219.668004	0.930871	
5219.670006	0.940973	
5219.672006	0.948263	
5219.674006	0.959678	
5219.676006	0.970767	
5219.678005	0.968377	
5219.682006	0.975035	
5219.686007	0.992616	
5219.688008	1.014161	
5219.690007	1.019892	
5219.692007	1.031057	
5219.694007	1.038392	
5219.696007	1.043876	
5219.698008	1.050463	
5219.702006	1.054837	
5219.706008	1.070979	
5219.708008	1.085344	
5219.710009	1.089384	
5219.712006	1.088550	
5219.714007	1.095901	
5219.716008	1.100045	
5219.718007	1.095784	
5219.722007	1.100398	
5219.726007	1.102938	
5219.728007	1.105525	
5219.730008	1.104550	
5219.732008	1.104444	
5219.734007	1.101644	
5219.736008	1.104458	
5219.740005	1.096731	
5219.744005	1.091926	
5219.746008	1.080700	
5219.748006	1.076200	
5219.750008	1.069756	
5219.752006	1.066961	
5219.754006	1.061869	
5219.756005	1.049171	
5219.758007	1.037014	
5219.760014	1.032554	
5219.764019	1.020614	
5219.766020	0.998868	
5219.768020	0.989598	
5219.770020	0.983052	
5219.772020	0.970804	
5219.774020	0.958532	
5219.776020	0.949004	
5219.780017	0.931027	
5219.782020	0.906368	
5219.784018	0.892104	
5219.786019	0.883742	
5219.788022	0.873376	
5219.790020	0.860412	
5219.792019	0.850655	
5219.794020	0.837685	
5219.796020	0.826202	
5219.800017	0.816255	
5219.802020	0.787278	
5219.804020	0.780797	
5219.808019	0.769996	
5219.810020	0.754283	
5219.812018	0.740322	
5219.814020	0.731396	
5219.816018	0.724416	
5219.820018	0.714358	
5219.822020	0.692952	
5219.824018	0.683733	
5219.828019	0.680464	
5219.830020	0.663309	
5219.832020	0.656106	
5219.834019	0.642957	
5219.836020	0.640256	
5219.838020	0.633327	
5219.840018	0.622163	
5219.842020	0.615371	
5219.844022	0.605521	
5219.848020	0.594640	
5219.850020	0.583758	
5219.852021	0.577057	
5219.854019	0.569963	
5219.856020	0.559230	
5219.858020	0.552758	
5219.860022	0.546552	
5219.862021	0.532360	
5219.866021	0.524650	
5219.868022	0.503443	
5219.870021	0.499033	
5219.872022	0.493090	
5219.874021	0.483722	
5219.876021	0.477073	
5219.878021	0.462664	
5219.880021	0.454300	
5219.884020	0.446164	
5219.886020	0.427747	
5219.888020	0.418212	
5219.892020	0.408675	
5219.894022	0.395265	
5219.896021	0.385139	
5219.898022	0.377480	
5219.900021	0.367848	
5219.904020	0.358472	
5219.906022	0.339932	
5219.908021	0.331838	
5219.912020	0.324442	
5219.914022	0.308687	
5219.916022	0.301374	
5219.918022	0.289952	
5219.920021	0.286980	
5219.924020	0.278119	
5219.926022	0.262378	
5219.928021	0.252135	
5219.932021	0.245985	
5219.934022	0.235957	
5219.936021	0.232702	
5219.938021	0.226972	
5219.940022	0.221244	
5219.942021	0.218090	
5219.944022	0.209225	
5219.948020	0.201805	
5219.950021	0.194916	
5219.952021	0.192429	
5219.954022	0.193040	
5219.956024	0.188300	
5219.958026	0.186856	
5219.960027	0.184377	
5219.962027	0.179175	
5219.966026	0.176608	
5219.968028	0.165946	
5219.970027	0.167415	
5219.974028	0.165038	
5219.976026	0.165890	
5219.978027	0.159427	
5219.980027	0.156206	
5219.982028	0.156559	
5219.986025	0.151038	
5219.988027	0.146032	
5219.990027	0.141362	
5219.994028	0.142218	
5219.996026	0.136576	
5219.998027	0.135352	
5220.000028	0.130064	
5220.002028	0.127886	
5220.004028	0.126451	
5220.006026	0.118314	
5220.010026	0.116530	
5220.014027	0.107413	
5220.016027	0.104719	
5220.018027	0.099023	
5220.020026	0.097486	
5220.022027	0.094200	
5220.024027	0.089805	
5220.026027	0.084300	
5220.030028	0.076057	
5220.034026	0.068501	
5220.036026	0.064332	
5220.038027	0.060133	
5220.040027	0.053489	
5220.042027	0.052818	
5220.044028	0.047426	
5220.046027	0.035943	
5220.050032	0.034632	
5220.054030	0.025202	
5220.056032	0.021686	
5220.058033	0.019350	
5220.060036	0.015992	
5220.062040	0.010059	
5220.064040	0.008279	
5220.066039	0.001186	
5220.070040	-0.003660	
5220.074039	-0.005919	
5220.076040	-0.004430	
5220.078040	-0.011426	
5220.080040	-0.012772	
5220.082039	-0.014677	
5220.084040	-0.018796	
5220.086039	-0.017334	
5220.090047	-0.017870	
5220.092047	-0.023565	
5220.094048	-0.027651	
5220.096048	-0.026012	
5220.098047	-0.022608	
5220.100047	-0.027512	
5220.102047	-0.030227	
5220.104047	-0.029908	
5220.108045	-0.031853	
5220.110048	-0.033478	
5220.112046	-0.039287	
5220.116047	-0.039250	
5220.118049	-0.040936	
5220.120048	-0.034959	
5220.122048	-0.041023	
5220.124047	-0.043119	
5220.128046	-0.041276	
5220.130046	-0.051163	
5220.132047	-0.051322	
5220.136046	-0.056364	
5220.138049	-0.055931	
5220.140047	-0.057418	
5220.142047	-0.056682	
5220.144047	-0.061697	
5220.146046	-0.070333	
5220.148047	-0.074490	
5220.152047	-0.077179	
5220.156047	-0.081251	
5220.158046	-0.087957	
5220.160048	-0.091314	
5220.162047	-0.099087	
5220.164048	-0.100361	
5220.166047	-0.105915	
5220.168048	-0.117752	
5220.172047	-0.119590	
5220.174047	-0.128473	
5220.176048	-0.130995	
5220.178051	-0.137895	
5220.180048	-0.142367	
5220.182048	-0.148335	
5220.184048	-0.155686	
5220.186047	-0.155299	
5220.190045	-0.162225	
5220.192047	-0.175441	
5220.194048	-0.180910	
5220.198047	-0.189780	
5220.200047	-0.195279	
5220.202048	-0.201382	
5220.204047	-0.206290	
5220.206048	-0.210920	
5220.208048	-0.214389	
5220.210046	-0.221729	
5220.214052	-0.230730	
5220.218052	-0.239848	
5220.220054	-0.243746	
5220.222054	-0.249130	
5220.224053	-0.255005	
5220.226054	-0.256410	
5220.228052	-0.263709	
5220.232051	-0.270887	
5220.234054	-0.281537	
5220.238054	-0.283554	
5220.242051	-0.290330	
5220.244054	-0.295912	
5220.246054	-0.304408	
5220.248054	-0.306914	
5220.252052	-0.314551	
5220.254054	-0.322432	
5220.256061	-0.329338	
5220.258065	-0.333457	
5220.260063	-0.335030	
5220.262064	-0.344246	
5220.264063	-0.348369	
5220.266063	-0.354640	
5220.268063	-0.364370	
5220.272061	-0.367764	
5220.274063	-0.384430	
5220.276063	-0.389537	
5220.280062	-0.400910	
5220.282063	-0.411357	
5220.284064	-0.420687	
5220.286063	-0.427102	
5220.288065	-0.435653	
5220.290064	-0.447401	
5220.292063	-0.457908	
5220.294064	-0.468790	
5220.296064	-0.482443	
5220.300074	-0.491272	
5220.302076	-0.512679	
5220.304075	-0.521101	
5220.306075	-0.533991	
5220.308075	-0.546235	
5220.310074	-0.556247	
5220.312075	-0.571386	
5220.316073	-0.586422	
5220.320074	-0.613336	
5220.322076	-0.632967	
5220.324075	-0.645777	
5220.326075	-0.655577	
5220.328075	-0.671696	
5220.330075	-0.683572	
5220.332075	-0.695594	
5220.334075	-0.713983	
5220.338082	-0.723326	
5220.342080	-0.748305	
5220.344082	-0.766518	
5220.346080	-0.781106	
5220.348082	-0.792003	
5220.350082	-0.803016	
5220.352082	-0.813389	
5220.354082	-0.824462	
5220.358082	-0.835931	
5220.360082	-0.853728	
5220.362082	-0.866255	
5220.364083	-0.872347	
5220.366084	-0.881476	
5220.368082	-0.891603	
5220.370080	-0.897037	
5220.372081	-0.905466	
5220.376079	-0.913883	
5220.378082	-0.933538	
5220.380081	-0.941500	
5220.384081	-0.947432	
5220.386081	-0.956960	
5220.388082	-0.963912	
5220.390080	-0.973299	
5220.392082	-0.976341	
5220.394079	-0.983671	
5220.396082	-0.997247	
5220.398082	-1.001311	
5220.402082	-1.008128	
5220.404082	-1.017786	
5220.406082	-1.024620	
5220.408082	-1.031206	
5220.410081	-1.036323	
5220.412081	-1.045984	
5220.414082	-1.052136	
5220.416082	-1.059803	
5220.420080	-1.072539	
5220.424080	-1.083893	
5220.426080	-1.090777	
5220.428080	-1.102154	
5220.430082	-1.111322	
5220.432083	-1.114843	
5220.434081	-1.123796	
5220.438079	-1.131031	
5220.442080	-1.144071	
5220.444081	-1.147257	
5220.446081	-1.154878	
5220.448082	-1.155115	
5220.450081	-1.159765	
5220.452081	-1.162490	
5220.454080	-1.159986	
5220.458079	-1.164774	
5220.462080	-1.164353	
5220.464082	-1.161390	
5220.466081	-1.156936	
5220.468082	-1.156228	
5220.470082	-1.148687	
5220.472082	-1.144984	
5220.474081	-1.140089	
5220.478080	-1.134253	
5220.482080	-1.122656	
5220.484081	-1.104711	
5220.486082	-1.091144	
5220.488081	-1.079167	
5220.490080	-1.070812	
5220.492080	-1.055834	
5220.494080	-1.044055	
5220.498080	-1.039352	
5220.502079	-1.012346	
5220.504081	-0.979215	
5220.506081	-0.966749	
5220.508082	-0.950666	
5220.510080	-0.933972	
5220.512082	-0.920487	
5220.514082	-0.904848	
5220.518079	-0.892384	
5220.520081	-0.858176	
5220.522081	-0.842083	
5220.526081	-0.827518	
5220.528082	-0.794132	
5220.530082	-0.779044	
5220.532082	-0.761175	
5220.534081	-0.745893	
5220.536082	-0.728618	
5220.538082	-0.715744	
5220.540081	-0.701732	
5220.544081	-0.683520	
5220.546081	-0.654713	
5220.548082	-0.633748	
5220.550081	-0.618363	
5220.552080	-0.603744	
5220.554081	-0.583399	
5220.556085	-0.568345	
5220.560082	-0.553737	
5220.562083	-0.527280	
5220.564083	-0.508824	
5220.566084	-0.489800	
5220.568083	-0.472602	
5220.570084	-0.451002	
5220.572083	-0.435082	
5220.574084	-0.419764	
5220.576083	-0.400413	
5220.580081	-0.386431	
5220.582082	-0.352802	
5220.584084	-0.337933	
5220.588084	-0.316543	
5220.590083	-0.272587	
5220.592084	-0.250944	
5220.594084	-0.232013	
5220.596084	-0.217662	
5220.600082	-0.195405	
5220.602082	-0.159397	
5220.604085	-0.135362	
5220.608082	-0.116999	
5220.610085	-0.065653	
5220.612083	-0.047025	
5220.614084	-0.025182	
5220.616084	-0.001888	
5220.618083	0.016754	
5220.620084	0.040108	
5220.622083	0.063159	
5220.624084	0.085144	
5220.628083	0.109276	
5220.630083	0.147385	
5220.632084	0.172994	
5220.634082	0.192675	
5220.636083	0.213585	
5220.638084	0.233275	
5220.640084	0.250786	
5220.644081	0.267784	
5220.648081	0.302053	
5220.650083	0.342117	
5220.652084	0.358283	
5220.654085	0.378639	
5220.656088	0.393606	
5220.658088	0.410800	
5220.660088	0.427030	
5220.662088	0.433949	
5220.666088	0.450196	
5220.670090	0.480484	
5220.672090	0.518225	
5220.674089	0.533095	
5220.676088	0.552554	
5220.678090	0.565999	
5220.680089	0.580973	
5220.682090	0.594616	
5220.686099	0.608351	
5220.690100	0.645162	
5220.692099	0.683281	
5220.694100	0.698814	
5220.696099	0.709439	
5220.698099	0.728430	
5220.700099	0.745283	
5220.702099	0.757697	
5220.706100	0.777248	
5220.710100	0.807600	
5220.712101	0.844786	
5220.714099	0.861565	
5220.716100	0.876341	
5220.718099	0.889691	
5220.720100	0.909678	
5220.724097	0.922219	
5220.726099	0.954670	
5220.730100	0.967421	
5220.732100	1.000512	
5220.734099	1.012095	
5220.736099	1.027779	
5220.738100	1.041086	
5220.740101	1.051445	
5220.744097	1.061524	
5220.746099	1.081246	
5220.750100	1.094759	
5220.752101	1.112091	
5220.754100	1.123073	
5220.756105	1.128404	
5220.758107	1.136065	
5220.760108	1.144274	
5220.762107	1.141817	
5220.766106	1.145132	
5220.768107	1.149821	
5220.770107	1.156117	
5220.772108	1.159084	
5220.774108	1.158246	
5220.776107	1.160907	
5220.778108	1.156401	
5220.780107	1.153533	
5220.784106	1.153141	
5220.786108	1.142988	
5220.788106	1.140169	
5220.792107	1.134304	
5220.794108	1.130591	
5220.796107	1.119524	
5220.798108	1.115094	
5220.800108	1.110655	
5220.802108	1.102151	
5220.806106	1.095876	
5220.810105	1.081131	
5220.812108	1.068636	
5220.814108	1.063086	
5220.816108	1.056666	
5220.818108	1.046648	
5220.820108	1.045233	
5220.822107	1.037824	
5220.824108	1.028765	
5220.828106	1.024685	
5220.832107	1.007189	
5220.834107	0.998636	
5220.836108	0.994609	
5220.838107	0.987938	
5220.840108	0.980442	
5220.842106	0.976403	
5220.844107	0.968113	
5220.848108	0.957348	
5220.850107	0.946666	
5220.852108	0.937631	
5220.854108	0.936029	
5220.856115	0.928854	
5220.858117	0.922770	
5220.860118	0.915605	
5220.862118	0.904901	
5220.866116	0.896499	
5220.868116	0.875398	
5220.870116	0.870790	
5220.874116	0.862147	
5220.876118	0.847707	
5220.878118	0.836570	
5220.880118	0.823936	
5220.882117	0.816333	
5220.884118	0.802523	
5220.886118	0.789321	
5220.890122	0.779165	
5220.894123	0.755642	
5220.896123	0.730813	
5220.898123	0.720510	
5220.900123	0.707100	
5220.902124	0.694094	
5220.904124	0.684816	
5220.906124	0.667114	
5220.910127	0.653698	
5220.914126	0.627258	
5220.916128	0.607199	
5220.918127	0.590665	
5220.920127	0.580878	
5220.922127	0.568518	
5220.924126	0.555498	
5220.926128	0.542124	
5220.930127	0.528864	
5220.932128	0.506039	
5220.934127	0.491567	
5220.936128	0.485159	
5220.938128	0.476413	
5220.940128	0.465096	
5220.942128	0.454935	
5220.944126	0.448494	
5220.948127	0.433477	
5220.950127	0.417031	
5220.952128	0.409853	
5220.956131	0.404860	
5220.958132	0.390153	
5220.960132	0.387159	
5220.962130	0.375591	
5220.964132	0.369916	
5220.968129	0.364674	
5220.970130	0.349236	
5220.972132	0.342433	
5220.976132	0.336358	
5220.978132	0.328502	
5220.980132	0.321680	
5220.982130	0.318407	
5220.984131	0.311280	
5220.988130	0.307570	
5220.990131	0.294526	
5220.992132	0.290841	
5220.996130	0.287331	
5220.998131	0.279915	
5221.000132	0.275275	
5221.002131	0.267660	
5221.004132	0.267900	
5221.006132	0.261205	
5221.008133	0.252976	
5221.012132	0.250422	
5221.014131	0.238775	
5221.016130	0.235558	
5221.018131	0.229181	
5221.020132	0.228529	
5221.022132	0.223200	
5221.024131	0.216622	
5221.026131	0.213226	
5221.030130	0.206221	
5221.032131	0.192482	
5221.034130	0.185019	
5221.038131	0.180956	
5221.040133	0.172180	
5221.042131	0.167460	
5221.044132	0.162220	
5221.046131	0.152765	
5221.050129	0.148288	
5221.052130	0.133089	
5221.054131	0.129676	
5221.058133	0.123156	
5221.060134	0.118007	
5221.062133	0.109512	
5221.064134	0.103696	
5221.066133	0.100961	
5221.070131	0.092444	
5221.072134	0.083969	
5221.074134	0.077918	
5221.078134	0.075704	
5221.080134	0.068264	
5221.082132	0.067198	
5221.084134	0.059971	
5221.086134	0.058951	
5221.088134	0.055883	
5221.090134	0.047902	
5221.094137	0.046842	
5221.096138	0.039167	
5221.098137	0.038018	
5221.100139	0.038377	
5221.102140	0.034476	
5221.104139	0.035932	
5221.106139	0.031652	
5221.108140	0.030478	
5221.112137	0.030032	
5221.114140	0.020002	
5221.116139	0.020257	
5221.120140	0.015621	
5221.122139	0.018090	
5221.124140	0.015453	
5221.126139	0.014947	
5221.128140	0.012987	
5221.132137	0.009007	
5221.134140	0.001295	
5221.136139	0.000217	
5221.140139	-0.000387	
5221.142140	-0.002014	
5221.144139	-0.002898	
5221.146139	-0.011364	
5221.148140	-0.010519	
5221.150139	-0.013770	
5221.152141	-0.022030	
5221.156140	-0.021330	
5221.158140	-0.029176	
5221.160139	-0.030805	
5221.162142	-0.034165	
5221.164140	-0.038497	
5221.166141	-0.040932	
5221.168140	-0.048475	
5221.170139	-0.047665	
5221.174137	-0.054020	
5221.176140	-0.064003	
5221.178139	-0.069923	
5221.182138	-0.077059	
5221.184139	-0.081425	
5221.186140	-0.085167	
5221.188140	-0.091177	
5221.190140	-0.096061	
5221.194138	-0.100105	
5221.196140	-0.116896	
5221.198140	-0.119606	
5221.202139	-0.125112	
5221.204140	-0.130404	
5221.206139	-0.136991	
5221.208138	-0.143175	
5221.210140	-0.145741	
5221.212139	-0.154377	
5221.214139	-0.163131	
5221.218140	-0.166686	
5221.220140	-0.175496	
5221.222138	-0.180904	
5221.224143	-0.184142	
5221.226141	-0.185521	
5221.228141	-0.191540	
5221.230142	-0.198692	
5221.232141	-0.200071	
5221.236140	-0.206697	
5221.238140	-0.215395	
5221.240142	-0.220131	
5221.244142	-0.223257	
5221.246142	-0.228596	
5221.248140	-0.230081	
5221.250142	-0.234842	
5221.252143	-0.239192	
5221.254142	-0.239712	
5221.256144	-0.247059	
5221.260149	-0.251282	
5221.264148	-0.259923	
5221.266150	-0.262419	
5221.268150	-0.269461	
5221.270150	-0.271307	
5221.272149	-0.275365	
5221.274149	-0.281397	
5221.278148	-0.288125	
5221.282147	-0.301674	
5221.284149	-0.310769	
5221.286150	-0.315066	
5221.288149	-0.320839	
5221.290150	-0.330080	
5221.292150	-0.334796	
5221.294150	-0.341012	
5221.296148	-0.355386	
5221.300156	-0.362931	
5221.304158	-0.378764	
5221.306158	-0.392071	
5221.308157	-0.401565	
5221.310157	-0.407837	
5221.312157	-0.418022	
5221.314158	-0.427685	
5221.316158	-0.438759	
5221.320160	-0.452187	
5221.322161	-0.468589	
5221.324161	-0.479723	
5221.326164	-0.485180	
5221.328161	-0.496855	
5221.330161	-0.510689	
5221.332162	-0.519226	
5221.334161	-0.530912	
5221.338159	-0.542086	
5221.340162	-0.565953	
5221.342161	-0.575058	
5221.346161	-0.584850	
5221.348161	-0.603138	
5221.350161	-0.612105	
5221.352161	-0.625724	
5221.354163	-0.631701	
5221.356169	-0.641887	
5221.358168	-0.655787	
5221.362180	-0.662612	
5221.364179	-0.685005	
5221.366180	-0.691705	
5221.368179	-0.700683	
5221.370180	-0.705449	
5221.372179	-0.714384	
5221.374180	-0.725085	
5221.376180	-0.730881	
5221.380178	-0.741106	
5221.382180	-0.760275	
5221.384178	-0.769431	
5221.388180	-0.777104	
5221.390179	-0.789086	
5221.392179	-0.795088	
5221.394179	-0.802742	
5221.396179	-0.813410	
5221.400177	-0.821133	
5221.402178	-0.839560	
5221.404178	-0.843953	
5221.408179	-0.853324	
5221.410180	-0.862090	
5221.412179	-0.873499	
5221.414179	-0.882602	
5221.416180	-0.887347	
5221.420178	-0.898517	
5221.422180	-0.914657	
